TITLE = "DG1DFDX64-P4RK4w100iv80"
VARIABLES = "x" "Density" "Velocity in x" "Energy" "Pressure" "Temperature" "Fugacity"
ZONE T = "Final Time 0.10"
I = 320, J = 1, K = 1, F = POINT

0.000733	0.837449	0.000004	0.913211	0.913211	4.000168	0.282067	
0.003606	0.837449	0.000004	0.913210	0.913210	4.000167	0.282067	
0.007813	0.837449	0.000005	0.913209	0.913209	4.000165	0.282067	
0.012019	0.837449	0.000006	0.913207	0.913207	4.000163	0.282067	
0.014892	0.837448	0.000007	0.913206	0.913206	4.000161	0.282067	
0.016358	0.837448	0.000007	0.913205	0.913205	4.000160	0.282067	
0.019231	0.837448	0.000009	0.913203	0.913203	4.000157	0.282067	
0.023438	0.837448	0.000011	0.913200	0.913200	4.000153	0.282067	
0.027644	0.837447	0.000013	0.913196	0.913196	4.000147	0.282067	
0.030517	0.837446	0.000015	0.913193	0.913193	4.000142	0.282067	
0.031983	0.837446	0.000017	0.913191	0.913191	4.000139	0.282067	
0.034856	0.837446	0.000020	0.913187	0.913187	4.000133	0.282067	
0.039063	0.837444	0.000025	0.913179	0.913179	4.000121	0.282067	
0.043269	0.837442	0.000032	0.913168	0.913168	4.000104	0.282067	
0.046142	0.837441	0.000039	0.913158	0.913158	4.000090	0.282067	
0.047608	0.837440	0.000044	0.913150	0.913150	4.000077	0.282067	
0.050481	0.837436	0.000060	0.913128	0.913128	3.999681	0.282082	
0.054688	0.837431	0.000082	0.913095	0.913095	3.999631	0.282082	
0.058894	0.837426	0.000102	0.913065	0.913065	3.999585	0.282082	
0.061767	0.837422	0.000118	0.913043	0.913043	3.999552	0.282082	
0.063233	0.837421	0.000125	0.913033	0.913033	3.999536	0.282082	
0.066106	0.837416	0.000144	0.913003	0.913003	3.999491	0.282082	
0.070313	0.837407	0.000183	0.912947	0.912947	3.999040	0.282097	
0.074519	0.837396	0.000228	0.912883	0.912883	3.998941	0.282097	
0.077392	0.837388	0.000260	0.912835	0.912835	3.998864	0.282097	
0.078858	0.837383	0.000281	0.912805	0.912805	3.998814	0.282097	
0.081731	0.837372	0.000326	0.912742	0.912742	3.998354	0.282112	
0.085938	0.837354	0.000401	0.912636	0.912636	3.998181	0.282112	
0.090144	0.837332	0.000491	0.912505	0.912505	3.997608	0.282127	
0.093017	0.837314	0.000565	0.912400	0.912400	3.997074	0.282142	
0.094483	0.837304	0.000607	0.912343	0.912343	3.996980	0.282142	
0.097356	0.837282	0.000696	0.912217	0.912217	3.996407	0.282157	
0.101563	0.837243	0.000851	0.912000	0.911999	3.995681	0.282172	
0.105769	0.837197	0.001038	0.911740	0.911739	3.994876	0.282187	
0.108642	0.837159	0.001188	0.911533	0.911532	3.994158	0.282202	
0.110108	0.837138	0.001272	0.911416	0.911416	3.993597	0.282218	
0.112981	0.837093	0.001453	0.911168	0.911167	3.992802	0.282233	
0.117188	0.837014	0.001762	0.910745	0.910744	3.991335	0.282263	
0.121394	0.836920	0.002132	0.910242	0.910241	3.989355	0.282308	
0.124267	0.836844	0.002426	0.909847	0.909844	3.987920	0.282338	
0.125733	0.836802	0.002590	0.909626	0.909623	3.987159	0.282354	
0.128606	0.836711	0.002941	0.909156	0.909152	3.985577	0.282384	
0.132813	0.836557	0.003534	0.908366	0.908361	3.982674	0.282444	
0.137019	0.836374	0.004234	0.907442	0.907434	3.979495	0.282505	
0.139892	0.836230	0.004781	0.906724	0.906714	3.977049	0.282550	
0.141358	0.836149	0.005084	0.906328	0.906317	3.975572	0.282580	
0.144231	0.835979	0.005728	0.905490	0.905477	3.972519	0.282641	
0.148438	0.835692	0.006802	0.904105	0.904085	3.967656	0.282731	
0.152644	0.835357	0.008047	0.902510	0.902483	3.962339	0.282822	
0.155517	0.835097	0.009008	0.901290	0.901256	3.958097	0.282897	
0.156983	0.834954	0.009534	0.900624	0.900586	3.955675	0.282943	
0.159856	0.834652	0.010643	0.899229	0.899182	3.951038	0.283018	
0.164063	0.834154	0.012461	0.896961	0.896897	3.943132	0.283154	
0.168269	0.833582	0.014530	0.894406	0.894318	3.934197	0.283305	
0.171142	0.833146	0.016099	0.892485	0.892377	3.927615	0.283411	
0.172608	0.832908	0.016951	0.891448	0.891328	3.923966	0.283471	
0.175481	0.832410	0.018726	0.889299	0.889153	3.916822	0.283577	
0.179688	0.831603	0.021590	0.885863	0.885670	3.905027	0.283758	
0.183894	0.830695	0.024788	0.882074	0.881819	3.891974	0.283955	
0.186767	0.830013	0.027173	0.879276	0.878970	3.882465	0.284091	
0.188233	0.829645	0.028455	0.877781	0.877445	3.877639	0.284151	
0.191106	0.828884	0.031099	0.874719	0.874318	3.867070	0.284302	
0.195313	0.827669	0.035295	0.869913	0.869398	3.850578	0.284529	
0.199519	0.826328	0.039892	0.864720	0.864062	3.832981	0.284755	
0.202392	0.825337	0.043268	0.860950	0.860177	3.820390	0.284906	
0.203858	0.824808	0.045067	0.858956	0.858118	3.813450	0.284997	
0.206731	0.823722	0.048743	0.854913	0.853935	3.799691	0.285163	
0.210938	0.822014	0.054491	0.848672	0.847452	3.778568	0.285405	
0.215144	0.820163	0.060681	0.842058	0.840548	3.755890	0.285661	
0.218017	0.818815	0.065163	0.837333	0.835595	3.739568	0.285843	
0.219483	0.818100	0.067531	0.834859	0.832993	3.731389	0.285918	
0.222356	0.816648	0.072331	0.829888	0.827751	3.714194	0.286099	
0.226563	0.814393	0.079742	0.822326	0.819736	3.688154	0.286356	
0.230769	0.811986	0.087607	0.814446	0.811330	3.660871	0.286613	
0.233642	0.810255	0.093238	0.808893	0.805371	3.641728	0.286779	
0.235108	0.809343	0.096192	0.806009	0.802264	3.631615	0.286870	
0.237981	0.807504	0.102139	0.800262	0.796050	3.611613	0.287036	
0.242188	0.804682	0.111219	0.791637	0.786660	3.581037	0.287293	
0.246394	0.801709	0.120737	0.782785	0.776941	3.549921	0.287519	
0.249267	0.799592	0.127485	0.776622	0.770124	3.527774	0.287685	
0.250733	0.798484	0.131005	0.773443	0.766591	3.516461	0.287761	
0.253606	0.796262	0.138051	0.767154	0.759566	3.493836	0.287912	
0.257813	0.792884	0.148720	0.757817	0.749048	3.459987	0.288124	
0.262019	0.789361	0.159793	0.748354	0.738277	3.425090	0.288335	
0.264892	0.786874	0.167581	0.741836	0.730787	3.401150	0.288456	
0.266358	0.785580	0.171624	0.738496	0.726926	3.388485	0.288531	
0.269231	0.782996	0.179679	0.731927	0.719288	3.363866	0.288652	
0.273438	0.779098	0.191785	0.722271	0.707943	3.327250	0.288818	
0.277644	0.775069	0.204251	0.712592	0.696425	3.290038	0.288969	
0.280517	0.772244	0.212964	0.705983	0.688471	3.264378	0.289060	
0.281983	0.770779	0.217471	0.702615	0.684388	3.251156	0.289105	
0.284856	0.767866	0.226418	0.696024	0.676342	3.224934	0.289196	
0.289063	0.763500	0.239790	0.686418	0.664467	3.186409	0.289302	
0.293269	0.759020	0.253462	0.676885	0.652504	3.147466	0.289392	
0.296142	0.755896	0.262964	0.670430	0.644295	3.120525	0.289453	
0.297608	0.754283	0.267864	0.667156	0.640096	3.106949	0.289468	
0.300481	0.751085	0.277563	0.660782	0.631850	3.079851	0.289513	
0.304688	0.746316	0.291987	0.651559	0.619745	3.040064	0.289558	
0.308894	0.741449	0.306660	0.642486	0.607623	3.000282	0.289574	
0.311767	0.738073	0.316814	0.636387	0.599346	2.972758	0.289589	
0.313233	0.736334	0.322036	0.633307	0.595126	2.958767	0.289589	
0.316106	0.732896	0.332342	0.627339	0.586864	2.931463	0.289574	
0.320313	0.727795	0.347601	0.618768	0.574800	2.891300	0.289543	
0.324519	0.722618	0.363043	0.610410	0.562789	2.851309	0.289483	
0.327392	0.719041	0.373686	0.604830	0.554626	2.823895	0.289438	
0.328858	0.717204	0.379147	0.602025	0.550475	2.809973	0.289407	
0.331731	0.713580	0.389901	0.596610	0.542370	2.782868	0.289332	
0.335938	0.708223	0.405763	0.588888	0.530586	2.742924	0.289226	
0.340144	0.702813	0.421741	0.581423	0.518919	2.703306	0.289090	
0.343017	0.699091	0.432709	0.576476	0.511029	2.676626	0.288969	
0.344483	0.697184	0.438320	0.574001	0.507027	2.662978	0.288909	
0.347356	0.693434	0.449341	0.569245	0.499240	2.636255	0.288788	
0.351563	0.687913	0.465531	0.562513	0.487971	2.597634	0.288577	
0.355769	0.682363	0.481763	0.556060	0.476873	2.559256	0.288350	
0.358642	0.678559	0.492860	0.551816	0.469401	2.533476	0.288169	
0.360108	0.676616	0.498524	0.549702	0.465624	2.520312	0.288078	
0.362981	0.672802	0.509617	0.545661	0.458294	2.494837	0.287882	
0.367188	0.667214	0.525835	0.539988	0.447745	2.458107	0.287565	
0.371394	0.661628	0.541996	0.534606	0.437426	2.421817	0.287232	
0.374267	0.657820	0.552985	0.531097	0.430519	2.397615	0.286976	
0.375733	0.655880	0.558575	0.529359	0.427040	2.385388	0.286840	
0.378606	0.652084	0.569490	0.526054	0.420313	2.361617	0.286568	
0.382813	0.646547	0.585363	0.521455	0.410686	2.327656	0.286130	
0.387019	0.641046	0.601072	0.517142	0.401341	2.294315	0.285677	
0.389892	0.637316	0.611685	0.514359	0.395130	2.272335	0.285329	
0.391358	0.635423	0.617061	0.512989	0.392016	2.261263	0.285148	
0.394231	0.631732	0.627511	0.510402	0.386023	2.239858	0.284785	
0.398438	0.626385	0.642591	0.506842	0.377518	2.209577	0.284211	
0.402644	0.621112	0.657376	0.503549	0.369344	2.180522	0.283592	
0.405517	0.617560	0.667286	0.501449	0.363958	2.161261	0.283154	
0.406983	0.615763	0.672282	0.500422	0.361271	2.151791	0.282912	
0.409856	0.612275	0.681941	0.498499	0.356132	2.133421	0.282444	
0.414063	0.607255	0.695751	0.495888	0.348911	2.107867	0.281704	
0.418269	0.602347	0.709130	0.493511	0.342061	2.083709	0.280919	
0.421142	0.599065	0.718004	0.492018	0.337600	2.068173	0.280345	
0.422608	0.597412	0.722447	0.491294	0.335391	2.060517	0.280042	
0.425481	0.594218	0.730978	0.489951	0.331197	2.045979	0.279438	
0.429688	0.589651	0.743045	0.488155	0.325377	2.026083	0.278502	
0.433894	0.585215	0.754589	0.486549	0.319937	2.007823	0.277505	
0.436767	0.582262	0.762162	0.485555	0.316440	1.996405	0.276780	
0.438233	0.580780	0.765926	0.485079	0.314724	1.990835	0.276402	
0.441106	0.577922	0.773106	0.484204	0.311494	1.980604	0.275632	
0.445313	0.573848	0.783148	0.483051	0.307075	1.966958	0.274454	
0.449519	0.569897	0.792633	0.482040	0.303017	1.955040	0.273200	
0.452392	0.567265	0.798796	0.481424	0.300446	1.947940	0.272294	
0.453858	0.565941	0.801844	0.481131	0.299194	1.944695	0.271810	
0.456731	0.563379	0.807635	0.480597	0.296858	1.938788	0.270844	
0.460938	0.559697	0.815688	0.479901	0.293705	1.931561	0.269348	
0.465144	0.556080	0.823259	0.479297	0.290853	1.926047	0.267747	
0.468017	0.553638	0.828169	0.478931	0.289071	1.923315	0.266584	
0.469483	0.552397	0.830597	0.478758	0.288211	1.922277	0.265965	
0.472356	0.549966	0.835216	0.478438	0.286614	1.920751	0.264711	
0.476563	0.546397	0.841671	0.478017	0.284481	1.919858	0.262763	
0.480769	0.542786	0.847804	0.477643	0.282573	1.920795	0.260648	
0.483642	0.540276	0.851835	0.477407	0.281389	1.922385	0.259107	
0.485108	0.538975	0.853850	0.477291	0.280818	1.923641	0.258277	
0.487981	0.536383	0.857725	0.477071	0.279764	1.926459	0.256600	
0.492188	0.532457	0.863252	0.476758	0.278364	1.932426	0.253942	
0.496394	0.528340	0.868649	0.476447	0.277117	1.940202	0.251057	
0.499267	0.525394	0.872292	0.476228	0.276344	1.946819	0.248927	
0.500733	0.523843	0.874143	0.476113	0.275972	1.950530	0.247794	
0.503606	0.520699	0.877767	0.475878	0.275285	1.958838	0.245453	
0.507813	0.515824	0.883089	0.475504	0.274372	1.972753	0.241782	
0.512019	0.510581	0.888474	0.475081	0.273558	1.989225	0.237780	
0.514892	0.506766	0.892208	0.474756	0.273054	2.002212	0.234834	
0.516358	0.504741	0.894135	0.474577	0.272812	2.009407	0.233263	
0.519231	0.500613	0.897956	0.474195	0.272367	2.024509	0.230061	
0.523438	0.494161	0.903686	0.473557	0.271779	2.049260	0.225061	
0.527644	0.487193	0.909599	0.472805	0.271260	2.077921	0.219654	
0.530517	0.482125	0.913748	0.472217	0.270945	2.099678	0.215742	
0.531983	0.479439	0.915902	0.471891	0.270796	2.111334	0.213688	
0.534856	0.473976	0.920196	0.471198	0.270526	2.136130	0.209504	
0.539063	0.465495	0.926655	0.470041	0.270183	2.176298	0.203069	
0.543269	0.456444	0.933303	0.468696	0.269902	2.221517	0.196287	
0.546142	0.449943	0.937941	0.467660	0.269745	2.255307	0.191484	
0.547608	0.446528	0.940335	0.467093	0.269676	2.273664	0.188976	
0.550481	0.439650	0.945073	0.465902	0.269562	2.311585	0.183977	
0.554688	0.429153	0.952100	0.463958	0.269446	2.372561	0.176455	
0.558894	0.418196	0.959184	0.461769	0.269391	2.439518	0.168781	
0.561767	0.410480	0.964023	0.460126	0.269388	2.489420	0.163465	
0.563233	0.406478	0.966483	0.459241	0.269397	2.515953	0.160746	
0.566106	0.398522	0.971273	0.457414	0.269436	2.570701	0.155399	
0.570313	0.386654	0.978161	0.454518	0.269542	2.656844	0.147590	
0.574519	0.374604	0.984823	0.451364	0.269704	2.750557	0.139856	
0.577392	0.366316	0.989197	0.449067	0.269845	2.818649	0.134660	
0.578858	0.362080	0.991363	0.447852	0.269926	2.855093	0.132032	
0.581731	0.353783	0.995457	0.445389	0.270101	2.928541	0.126972	
0.585938	0.341696	1.001041	0.441597	0.270393	3.041758	0.119782	
0.590144	0.329765	1.006051	0.437607	0.270724	3.162918	0.112864	
0.593017	0.321751	1.009095	0.434782	0.270967	3.249268	0.108333	
0.594483	0.317713	1.010521	0.433312	0.271096	3.294530	0.106082	
0.597356	0.309917	1.013046	0.430384	0.271355	3.384886	0.101807	
0.601563	0.298816	1.016069	0.425997	0.271749	3.522331	0.095856	
0.605769	0.288142	1.018239	0.421523	0.272149	3.665333	0.090282	
0.608642	0.281122	1.019206	0.418434	0.272421	3.764076	0.086718	
0.610108	0.277630	1.019534	0.416850	0.272559	3.815340	0.084966	
0.612981	0.270968	1.019847	0.413741	0.272825	3.917815	0.081658	
0.617188	0.261664	1.019519	0.409189	0.273200	4.067892	0.077157	
0.621394	0.252914	1.018259	0.404666	0.273548	4.220241	0.073018	
0.624267	0.247263	1.016875	0.401608	0.273769	4.323717	0.070405	
0.625733	0.244481	1.016011	0.400061	0.273875	4.376146	0.069136	
0.628606	0.239226	1.014015	0.397057	0.274068	4.478841	0.066764	
0.632813	0.232000	1.010402	0.392738	0.274313	4.627646	0.063562	
0.637019	0.225319	1.006031	0.388533	0.274510	4.773768	0.060662	
0.639892	0.221063	1.002649	0.385734	0.274616	4.870694	0.058850	
0.641358	0.218984	1.000809	0.384330	0.274661	4.919276	0.057974	
0.644231	0.215089	0.996999	0.381629	0.274730	5.011027	0.056357	
0.648438	0.209796	0.990988	0.377800	0.274784	5.142816	0.054182	
0.652644	0.204968	0.984548	0.374126	0.274785	5.268051	0.052234	
0.655517	0.201923	0.979949	0.371708	0.274754	5.348988	0.051025	
0.656983	0.200445	0.977547	0.370502	0.274730	5.387387	0.050451	
0.659856	0.197689	0.972757	0.368195	0.274663	5.462429	0.049379	
0.664063	0.193975	0.965592	0.364952	0.274524	5.567788	0.047944	
0.668269	0.190616	0.958307	0.361864	0.274338	5.666768	0.046660	
0.671142	0.188513	0.953300	0.359842	0.274183	5.727714	0.045875	
0.672608	0.187496	0.950743	0.358836	0.274096	5.757558	0.045497	
0.675481	0.185607	0.945740	0.356917	0.273912	5.812977	0.044802	
0.679688	0.183073	0.938459	0.354223	0.273607	5.887955	0.043881	
0.683894	0.180791	0.931261	0.351659	0.273263	5.955082	0.043065	
0.686767	0.179366	0.926405	0.349976	0.273008	5.999714	0.042552	
0.688233	0.178677	0.923952	0.349138	0.272871	6.019957	0.042310	
0.691106	0.177398	0.919185	0.347530	0.272588	6.059532	0.041857	
0.695313	0.175684	0.912321	0.345259	0.272146	6.108914	0.041268	
0.699519	0.174138	0.905601	0.343076	0.271670	6.154237	0.040739	
0.702392	0.173169	0.901090	0.341628	0.271325	6.179187	0.040422	
0.703858	0.172700	0.898809	0.340901	0.271142	6.195169	0.040256	
0.706731	0.171825	0.894381	0.339495	0.270772	6.218531	0.039969	
0.710938	0.170643	0.887976	0.337475	0.270198	6.247591	0.039591	
0.715144	0.169564	0.881640	0.335484	0.269584	6.275544	0.039244	
0.718017	0.168879	0.877337	0.334135	0.269141	6.290757	0.039032	
0.719483	0.168544	0.875146	0.333448	0.268906	6.294250	0.038942	
0.722356	0.167914	0.870851	0.332101	0.268429	6.309042	0.038745	
0.726563	0.167045	0.864535	0.330115	0.267689	6.325348	0.038489	
0.730769	0.166232	0.858144	0.328100	0.266892	6.336341	0.038262	
0.733642	0.165702	0.853709	0.326695	0.266312	6.344700	0.038111	
0.735108	0.165438	0.851415	0.325968	0.266004	6.349002	0.038035	
0.737981	0.164932	0.846853	0.324516	0.265375	6.354408	0.037899	
0.742188	0.164213	0.839969	0.322317	0.264387	6.358164	0.037718	
0.746394	0.163509	0.832787	0.320011	0.263312	6.358300	0.037552	
0.749267	0.163034	0.827677	0.318365	0.262521	6.356235	0.037446	
0.750733	0.162792	0.824995	0.317498	0.262099	6.357357	0.037386	
0.753606	0.162317	0.819579	0.315747	0.261232	6.355302	0.037280	
0.757813	0.161615	0.811209	0.313034	0.259858	6.350471	0.037129	
0.762019	0.160897	0.802233	0.310119	0.258344	6.339302	0.036993	
0.764892	0.160393	0.795701	0.307997	0.257221	6.334902	0.036887	
0.766358	0.160130	0.792230	0.306869	0.256618	6.329344	0.036842	
0.769231	0.159604	0.785132	0.304565	0.255373	6.318103	0.036751	
0.773438	0.158801	0.773963	0.300945	0.253383	6.300003	0.036616	
0.777644	0.157950	0.761753	0.297000	0.251174	6.283146	0.036465	
0.780517	0.157338	0.752741	0.294100	0.249524	6.264863	0.036374	
0.781983	0.157015	0.747912	0.292550	0.248635	6.254326	0.036329	
0.784856	0.156358	0.737961	0.289366	0.246791	6.232379	0.036238	
0.789063	0.155335	0.722116	0.284329	0.243829	6.201407	0.036087	
0.793269	0.154231	0.704583	0.278804	0.240521	6.158770	0.035951	
0.796142	0.153426	0.691535	0.274727	0.238041	6.129789	0.035845	
0.797608	0.152999	0.684513	0.272545	0.236701	6.110724	0.035800	
0.800481	0.152125	0.669994	0.268061	0.233917	6.076123	0.035694	
0.804688	0.150758	0.646783	0.260975	0.229442	6.012009	0.035558	
0.808894	0.149280	0.621035	0.253234	0.224446	5.938902	0.035422	
0.811767	0.148204	0.601874	0.247553	0.220710	5.882913	0.035332	
0.813233	0.147633	0.591578	0.244528	0.218695	5.852346	0.035286	
0.816106	0.146473	0.570343	0.238351	0.214528	5.789719	0.035196	
0.820313	0.144676	0.536645	0.228720	0.207887	5.677042	0.035105	
0.824519	0.142772	0.499813	0.218427	0.200594	5.551854	0.035030	
0.827392	0.141416	0.472917	0.211061	0.195247	5.456119	0.034999	
0.828858	0.140710	0.458679	0.207211	0.192409	5.401773	0.034999	
0.831731	0.139306	0.429860	0.199522	0.186651	5.294529	0.034999	
0.835938	0.137221	0.385828	0.188036	0.177823	5.119939	0.035060	
0.840144	0.135146	0.340496	0.176530	0.168696	4.933006	0.035181	
0.843017	0.133763	0.309416	0.168819	0.162416	4.796314	0.035317	
0.844483	0.133075	0.293692	0.164972	0.159233	4.727368	0.035392	
0.847356	0.131775	0.263448	0.157672	0.153099	4.589466	0.035573	
0.851563	0.130013	0.221383	0.147726	0.144540	4.390861	0.035891	
0.855769	0.128456	0.183114	0.138877	0.136724	4.203088	0.036253	
0.858642	0.127521	0.159628	0.133537	0.131913	4.085539	0.036510	
0.860108	0.127086	0.148534	0.131039	0.129637	4.028377	0.036646	
0.862981	0.126310	0.128570	0.126577	0.125533	3.925565	0.036903	
0.867188	0.125352	0.103498	0.121035	0.120363	3.790280	0.037280	
0.871394	0.124583	0.082992	0.116550	0.116121	3.679693	0.037612	
0.874267	0.124150	0.071319	0.114014	0.113698	3.614493	0.037824	
0.875733	0.123955	0.066008	0.112864	0.112594	3.586361	0.037915	
0.878606	0.123616	0.056743	0.110864	0.110665	3.533790	0.038096	
0.882813	0.123210	0.045541	0.108453	0.108326	3.470311	0.038322	
0.887019	0.122891	0.036648	0.106545	0.106462	3.418170	0.038519	
0.889892	0.122713	0.031652	0.105474	0.105412	3.390134	0.038624	
0.891358	0.122633	0.029390	0.104989	0.104936	3.377979	0.038670	
0.894231	0.122494	0.025446	0.104143	0.104104	3.354978	0.038760	
0.898438	0.122326	0.020668	0.103119	0.103093	3.325580	0.038881	
0.902644	0.122193	0.016847	0.102299	0.102282	3.303333	0.038972	
0.905517	0.122118	0.014681	0.101833	0.101820	3.289336	0.039032	
0.906983	0.122083	0.013694	0.101621	0.101610	3.285020	0.039047	
0.909856	0.122024	0.011962	0.101248	0.101239	3.274405	0.039093	
0.914063	0.121951	0.009840	0.100790	0.100784	3.260681	0.039153	
0.918269	0.121892	0.008117	0.100417	0.100413	3.250212	0.039198	
0.921142	0.121858	0.007129	0.100202	0.100199	3.243552	0.039229	
0.922608	0.121843	0.006675	0.100104	0.100101	3.242736	0.039229	
0.925481	0.121816	0.005871	0.099930	0.099927	3.236437	0.039259	
0.929688	0.121782	0.004876	0.099712	0.099710	3.229818	0.039289	
0.933894	0.121755	0.004058	0.099533	0.099532	3.225952	0.039304	
0.936767	0.121739	0.003583	0.099429	0.099428	3.222702	0.039319	
0.938233	0.121732	0.003365	0.099380	0.099379	3.222315	0.039319	
0.941106	0.121719	0.002974	0.099294	0.099294	3.219220	0.039334	
0.945313	0.121703	0.002483	0.099187	0.099186	3.215965	0.039349	
0.949519	0.121689	0.002077	0.099096	0.099095	3.212850	0.039365	
0.952392	0.121682	0.001840	0.099043	0.099043	3.212442	0.039365	
0.953858	0.121678	0.001720	0.099017	0.099017	3.209851	0.039380	
0.956731	0.121671	0.001530	0.098974	0.098974	3.209506	0.039380	
0.960938	0.121663	0.001278	0.098917	0.098917	3.209078	0.039380	
0.965144	0.121656	0.001060	0.098870	0.098870	3.206313	0.039395	
