TITLE = "DG1DBEX64-P4RK4w100iv80"
VARIABLES = "x" "Density" "Velocity in x" "Energy" "Pressure" "Temperature" "Fugacity"
ZONE T = "Final Time 0.10"
I = 320, J = 1, K = 1, F = POINT

0.000733	1.260686	0.000002	1.118676	1.118676	3.999732	0.282142	
0.003606	1.260686	0.000002	1.118676	1.118676	3.999731	0.282142	
0.007813	1.260686	0.000002	1.118675	1.118675	3.999730	0.282142	
0.012019	1.260685	0.000003	1.118674	1.118674	3.999729	0.282142	
0.014892	1.260685	0.000003	1.118673	1.118673	3.999729	0.282142	
0.016358	1.260685	0.000003	1.118673	1.118673	3.999728	0.282142	
0.019231	1.260685	0.000004	1.118672	1.118672	3.999727	0.282142	
0.023438	1.260685	0.000004	1.118670	1.118670	3.999725	0.282142	
0.027644	1.260684	0.000005	1.118668	1.118668	3.999723	0.282142	
0.030517	1.260684	0.000006	1.118666	1.118666	3.999721	0.282142	
0.031983	1.260684	0.000007	1.118666	1.118666	3.999720	0.282142	
0.034856	1.260684	0.000008	1.118664	1.118664	3.999718	0.282142	
0.039063	1.260683	0.000009	1.118660	1.118660	3.999714	0.282142	
0.043269	1.260682	0.000011	1.118656	1.118656	3.999710	0.282142	
0.046142	1.260682	0.000013	1.118652	1.118652	3.999706	0.282142	
0.047608	1.260681	0.000014	1.118650	1.118650	3.999703	0.282142	
0.050481	1.260681	0.000016	1.118645	1.118645	3.999698	0.282142	
0.054688	1.260679	0.000020	1.118637	1.118637	3.999689	0.282142	
0.058894	1.260677	0.000025	1.118627	1.118627	3.999677	0.282142	
0.061767	1.260676	0.000029	1.118618	1.118618	3.999667	0.282142	
0.063233	1.260675	0.000032	1.118612	1.118612	3.999660	0.282142	
0.066106	1.260672	0.000038	1.118600	1.118600	3.999645	0.282142	
0.070313	1.260668	0.000049	1.118576	1.118576	3.999619	0.282142	
0.074519	1.260660	0.000071	1.118532	1.118532	3.999566	0.282142	
0.077392	1.260651	0.000095	1.118483	1.118483	3.998965	0.282157	
0.078858	1.260647	0.000104	1.118463	1.118463	3.998940	0.282157	
0.081731	1.260640	0.000123	1.118425	1.118425	3.998896	0.282157	
0.085938	1.260629	0.000150	1.118369	1.118369	3.998829	0.282157	
0.090144	1.260618	0.000181	1.118305	1.118305	3.998755	0.282157	
0.093017	1.260608	0.000208	1.118249	1.118249	3.998691	0.282157	
0.094483	1.260599	0.000229	1.118210	1.118210	3.998639	0.282157	
0.097356	1.260585	0.000267	1.118131	1.118131	3.998001	0.282172	
0.101563	1.260562	0.000325	1.118013	1.118013	3.997860	0.282172	
0.105769	1.260534	0.000397	1.117869	1.117869	3.997135	0.282187	
0.108642	1.260511	0.000458	1.117746	1.117746	3.996987	0.282187	
0.110108	1.260498	0.000488	1.117683	1.117683	3.996910	0.282187	
0.112981	1.260470	0.000560	1.117546	1.117545	3.996731	0.282187	
0.117188	1.260422	0.000681	1.117302	1.117302	3.995884	0.282202	
0.121394	1.260364	0.000826	1.117016	1.117015	3.994974	0.282218	
0.124267	1.260318	0.000942	1.116790	1.116789	3.994136	0.282233	
0.125733	1.260293	0.001007	1.116665	1.116664	3.993974	0.282233	
0.128606	1.260236	0.001146	1.116391	1.116391	3.993071	0.282248	
0.132813	1.260140	0.001383	1.115933	1.115932	3.991921	0.282263	
0.137019	1.260025	0.001666	1.115393	1.115391	3.990105	0.282293	
0.139892	1.259933	0.001888	1.114966	1.114964	3.988983	0.282308	
0.141358	1.259882	0.002012	1.114731	1.114728	3.988660	0.282308	
0.144231	1.259773	0.002277	1.114229	1.114226	3.986881	0.282338	
0.148438	1.259587	0.002725	1.113387	1.113382	3.984620	0.282369	
0.152644	1.259366	0.003251	1.112404	1.112397	3.982140	0.282399	
0.155517	1.259193	0.003662	1.111641	1.111633	3.979961	0.282429	
0.156983	1.259096	0.003890	1.111221	1.111212	3.978810	0.282444	
0.159856	1.258891	0.004373	1.110333	1.110321	3.976430	0.282474	
0.164063	1.258546	0.005178	1.108864	1.108847	3.972094	0.282535	
0.168269	1.258144	0.006112	1.107175	1.107152	3.967396	0.282595	
0.171142	1.257831	0.006832	1.105883	1.105854	3.963809	0.282641	
0.172608	1.257659	0.007228	1.105178	1.105145	3.961646	0.282671	
0.175481	1.257295	0.008061	1.103697	1.103656	3.957737	0.282716	
0.179688	1.256692	0.009430	1.101285	1.101229	3.951258	0.282792	
0.183894	1.255998	0.010993	1.098559	1.098483	3.943680	0.282882	
0.186767	1.255467	0.012182	1.096504	1.096411	3.938205	0.282943	
0.188233	1.255177	0.012828	1.095392	1.095289	3.934781	0.282988	
0.191106	1.254569	0.014178	1.093084	1.092958	3.928835	0.283048	
0.195313	1.253577	0.016364	1.089383	1.089215	3.918366	0.283169	
0.199519	1.252456	0.018816	1.085279	1.085057	3.907114	0.283290	
0.202392	1.251609	0.020654	1.082233	1.081966	3.899190	0.283366	
0.203858	1.251151	0.021646	1.080601	1.080307	3.894749	0.283411	
0.206731	1.250199	0.023697	1.077245	1.076894	3.885132	0.283517	
0.210938	1.248669	0.026970	1.071949	1.071495	3.870903	0.283653	
0.215144	1.246970	0.030578	1.066190	1.065607	3.855143	0.283804	
0.218017	1.245706	0.033243	1.061985	1.061297	3.843683	0.283909	
0.219483	1.245027	0.034668	1.059754	1.059006	3.837417	0.283970	
0.222356	1.243630	0.037590	1.055212	1.054333	3.825182	0.284075	
0.226563	1.241418	0.042189	1.048154	1.047049	3.805910	0.284242	
0.230769	1.238998	0.047179	1.040614	1.039235	3.784939	0.284423	
0.233642	1.237224	0.050817	1.035191	1.033593	3.770020	0.284544	
0.235108	1.236279	0.052747	1.032339	1.030619	3.762226	0.284604	
0.237981	1.234348	0.056673	1.026586	1.024604	3.746431	0.284725	
0.242188	1.231331	0.062774	1.017780	1.015354	3.722094	0.284906	
0.246394	1.228082	0.069296	1.008533	1.005584	3.696479	0.285087	
0.249267	1.225727	0.073996	1.001975	0.998619	3.677844	0.285223	
0.250733	1.224483	0.076471	0.998554	0.994973	3.668397	0.285284	
0.253606	1.221959	0.081474	0.991710	0.987654	3.649344	0.285405	
0.257813	1.218057	0.089166	0.981368	0.976526	3.620206	0.285586	
0.262019	1.213909	0.097289	0.970671	0.964926	3.589777	0.285767	
0.264892	1.210934	0.103083	0.963179	0.956745	3.568354	0.285888	
0.266358	1.209372	0.106116	0.959300	0.952491	3.557231	0.285948	
0.269231	1.206223	0.112211	0.951599	0.944005	3.534918	0.286069	
0.273438	1.201403	0.121492	0.940099	0.931233	3.501058	0.286251	
0.277644	1.196336	0.131194	0.928364	0.918069	3.466447	0.286417	
0.280517	1.192733	0.138058	0.920232	0.908866	3.442357	0.286522	
0.281983	1.190851	0.141634	0.916051	0.904106	3.430115	0.286568	
0.284856	1.187076	0.148786	0.907800	0.894661	3.405193	0.286673	
0.289063	1.181345	0.159595	0.895607	0.880563	3.367858	0.286824	
0.293269	1.175375	0.170796	0.883316	0.866173	3.329873	0.286960	
0.296142	1.171164	0.178664	0.874885	0.856193	3.303387	0.287051	
0.297608	1.168973	0.182746	0.870576	0.851056	3.290156	0.287081	
0.300481	1.164599	0.190877	0.862121	0.840905	3.262946	0.287172	
0.304688	1.158002	0.203093	0.849740	0.825858	3.223048	0.287278	
0.308894	1.151180	0.215665	0.837390	0.810619	3.182622	0.287368	
0.311767	1.146398	0.224446	0.828994	0.800118	3.154537	0.287429	
0.313233	1.143919	0.228987	0.824723	0.794732	3.140065	0.287459	
0.316106	1.138984	0.238006	0.816393	0.784133	3.111776	0.287504	
0.320313	1.131586	0.251481	0.804299	0.768517	3.069836	0.287565	
0.324519	1.123991	0.265259	0.792358	0.752815	3.027546	0.287610	
0.327392	1.118692	0.274841	0.784306	0.742054	2.998263	0.287640	
0.328858	1.115954	0.279784	0.780233	0.736555	2.983602	0.287640	
0.331731	1.110520	0.289567	0.772322	0.725763	2.954220	0.287655	
0.335938	1.102409	0.304124	0.760927	0.709945	2.910833	0.287670	
0.340144	1.094124	0.318939	0.749784	0.694136	2.867632	0.287655	
0.343017	1.088371	0.329197	0.742331	0.683357	2.837934	0.287640	
0.344483	1.085406	0.334474	0.738579	0.677866	2.822873	0.287625	
0.347356	1.079542	0.344893	0.731332	0.667125	2.793201	0.287595	
0.351563	1.070826	0.360333	0.720977	0.651459	2.749759	0.287534	
0.355769	1.061964	0.375980	0.710943	0.635883	2.706251	0.287459	
0.358642	1.055833	0.386776	0.704285	0.625311	2.676888	0.287383	
0.360108	1.052680	0.392317	0.700950	0.619940	2.661643	0.287353	
0.362981	1.046458	0.403233	0.694539	0.609464	2.632040	0.287278	
0.367188	1.037248	0.419348	0.685458	0.594257	2.589041	0.287142	
0.371394	1.027929	0.435599	0.676749	0.579227	2.546150	0.286991	
0.374267	1.021508	0.446764	0.671021	0.569075	2.517149	0.286870	
0.375733	1.018215	0.452481	0.668167	0.563933	2.502291	0.286809	
0.378606	1.011731	0.463719	0.662710	0.553931	2.473516	0.286673	
0.382813	1.002166	0.480248	0.655046	0.539477	2.431874	0.286447	
0.387019	0.992531	0.496840	0.647778	0.525274	2.390482	0.286205	
0.389892	0.985919	0.508192	0.643043	0.515732	2.362556	0.286024	
0.391358	0.982536	0.513988	0.640699	0.510914	2.348271	0.285933	
0.394231	0.975893	0.525348	0.636246	0.501577	2.321004	0.285722	
0.398438	0.966141	0.541973	0.630059	0.488165	2.281301	0.285405	
0.402644	0.956371	0.558559	0.624266	0.475078	2.242350	0.285057	
0.405517	0.949695	0.569851	0.620534	0.466337	2.216239	0.284800	
0.406983	0.946288	0.575600	0.618699	0.461939	2.203346	0.284649	
0.409856	0.939616	0.586829	0.615238	0.453451	2.177682	0.284378	
0.414063	0.929867	0.603166	0.610489	0.441342	2.141410	0.283924	
0.418269	0.920161	0.619339	0.606112	0.429634	2.106057	0.283441	
0.421142	0.913567	0.630271	0.603331	0.421877	2.082468	0.283094	
0.422608	0.910214	0.635810	0.601975	0.417996	2.070863	0.282897	
0.425481	0.903672	0.646579	0.599441	0.410545	2.048151	0.282520	
0.429688	0.894168	0.662124	0.596015	0.400009	2.016241	0.281915	
0.433894	0.884766	0.677371	0.592913	0.389934	1.985666	0.281266	
0.436767	0.878412	0.687589	0.590975	0.383327	1.965548	0.280798	
0.438233	0.875194	0.692737	0.590040	0.380044	1.955709	0.280541	
0.441106	0.868939	0.702683	0.588311	0.373786	1.936837	0.280027	
0.445313	0.859907	0.716892	0.586014	0.365046	1.910601	0.279227	
0.449519	0.851037	0.730648	0.583979	0.356818	1.886345	0.278351	
0.452392	0.845077	0.739762	0.582730	0.351496	1.870537	0.277731	
0.453858	0.842068	0.744322	0.582133	0.348874	1.862872	0.277399	
0.456731	0.836230	0.753078	0.581042	0.343918	1.848564	0.276719	
0.460938	0.827823	0.765452	0.579616	0.337098	1.829448	0.275647	
0.465144	0.819587	0.777272	0.578375	0.330798	1.812210	0.274499	
0.468017	0.814058	0.785012	0.577622	0.326793	1.801561	0.273668	
0.469483	0.811265	0.788860	0.577266	0.324840	1.796707	0.273215	
0.472356	0.805837	0.796203	0.576612	0.321187	1.787637	0.272309	
0.476563	0.797990	0.806483	0.575760	0.316247	1.776190	0.270889	
0.480769	0.790235	0.816217	0.575010	0.311779	1.766966	0.269348	
0.483642	0.784967	0.822564	0.574542	0.308983	1.761760	0.268231	
0.485108	0.782278	0.825716	0.574314	0.307633	1.759626	0.267626	
0.487981	0.777004	0.831723	0.573887	0.305136	1.756009	0.266403	
0.492188	0.769235	0.840139	0.573290	0.301815	1.752937	0.264454	
0.496394	0.761350	0.848150	0.572709	0.298867	1.751918	0.262340	
0.499267	0.755855	0.853424	0.572307	0.297050	1.752481	0.260784	
0.500733	0.753006	0.856061	0.572098	0.296181	1.753150	0.259953	
0.503606	0.747317	0.861136	0.571673	0.294585	1.755498	0.258231	
0.507813	0.738681	0.868384	0.571003	0.292487	1.761003	0.255497	
0.512019	0.729590	0.875486	0.570251	0.290644	1.769163	0.252476	
0.514892	0.723068	0.880286	0.569675	0.289520	1.776185	0.250241	
0.516358	0.719630	0.882728	0.569357	0.288986	1.780415	0.249033	
0.519231	0.712664	0.887508	0.568683	0.288011	1.789514	0.246555	
0.523438	0.701846	0.894543	0.567551	0.286740	1.805742	0.242598	
0.527644	0.690210	0.901682	0.566217	0.285636	1.825424	0.238233	
0.530517	0.681752	0.906642	0.565171	0.284971	1.840774	0.235015	
0.531983	0.677267	0.909206	0.564590	0.284657	1.849305	0.233294	
0.534856	0.668131	0.914305	0.563352	0.284089	1.867716	0.229744	
0.539063	0.653895	0.921966	0.561277	0.283365	1.898542	0.224140	
0.543269	0.638622	0.929871	0.558857	0.282761	1.934279	0.218053	
0.546142	0.627597	0.935413	0.556987	0.282414	1.961915	0.213612	
0.547608	0.621786	0.938285	0.555961	0.282257	1.977155	0.211256	
0.550481	0.610044	0.944001	0.553802	0.281986	2.008617	0.206498	
0.554688	0.592037	0.952561	0.550275	0.281675	2.060764	0.199127	
0.558894	0.573147	0.961306	0.546293	0.281467	2.119512	0.191363	
0.561767	0.559800	0.967355	0.543305	0.281382	2.164061	0.185850	
0.563233	0.552866	0.970455	0.541696	0.281356	2.188212	0.182980	
0.566106	0.539069	0.976544	0.538378	0.281339	2.238582	0.177255	
0.570313	0.518477	0.985424	0.533129	0.281393	2.319212	0.168706	
0.574519	0.497592	0.994166	0.527439	0.281537	2.408480	0.160036	
0.577392	0.483262	0.999998	0.523315	0.281685	2.474907	0.154085	
0.578858	0.475953	1.002915	0.521141	0.281775	2.510610	0.151049	
0.581731	0.461675	1.008490	0.516752	0.281978	2.583900	0.145128	
0.585938	0.440988	1.016235	0.510048	0.282336	2.698550	0.136593	
0.590144	0.420733	1.023356	0.503065	0.282758	2.823081	0.128271	
0.593017	0.407237	1.027790	0.498169	0.283077	2.913378	0.122758	
0.594483	0.400474	1.029903	0.495639	0.283248	2.960924	0.120008	
0.597356	0.387492	1.033727	0.490632	0.283597	3.057257	0.114752	
0.601563	0.369194	1.038506	0.483219	0.284132	3.205510	0.107396	
0.605769	0.351824	1.042226	0.475767	0.284685	3.360737	0.100493	
0.608642	0.340533	1.044115	0.470687	0.285067	3.471417	0.096037	
0.610108	0.334956	1.044868	0.468104	0.285260	3.527997	0.093862	
0.612981	0.324398	1.045920	0.463072	0.285635	3.642026	0.089754	
0.617188	0.309832	1.046437	0.455805	0.286167	3.812251	0.084150	
0.621394	0.296336	1.045735	0.448698	0.286667	3.985033	0.079029	
0.624267	0.287730	1.044568	0.443959	0.286984	4.102634	0.075812	
0.625733	0.283526	1.043763	0.441580	0.287137	4.163916	0.074241	
0.628606	0.275647	1.041789	0.437001	0.287418	4.280968	0.071341	
0.632813	0.264946	1.037979	0.430505	0.287779	4.453542	0.067429	
0.637019	0.255199	1.033160	0.424280	0.288078	4.621625	0.063925	
0.639892	0.249064	1.029352	0.420191	0.288241	4.735521	0.061735	
0.641358	0.246090	1.027258	0.418157	0.288313	4.790730	0.060692	
0.644231	0.240555	1.022886	0.414272	0.288426	4.900670	0.058744	
0.648438	0.233123	1.015919	0.408832	0.288530	5.052240	0.056176	
0.652644	0.226434	1.008397	0.403689	0.288563	5.199095	0.053880	
0.655517	0.222262	1.003005	0.400345	0.288545	5.292079	0.052475	
0.656983	0.220249	1.000187	0.398689	0.288523	5.339328	0.051796	
0.659856	0.216520	0.994563	0.395543	0.288457	5.429332	0.050542	
0.664063	0.211546	0.986139	0.391166	0.288305	5.547633	0.048911	
0.668269	0.207101	0.977590	0.387053	0.288091	5.662689	0.047446	
0.671142	0.204344	0.971732	0.384391	0.287914	5.733544	0.046554	
0.672608	0.203018	0.968745	0.383077	0.287814	5.767233	0.046131	
0.675481	0.200569	0.962909	0.380581	0.287597	5.832397	0.045346	
0.679688	0.197314	0.954447	0.377114	0.287241	5.918227	0.044319	
0.683894	0.194413	0.946122	0.373852	0.286838	5.995861	0.043413	
0.686767	0.192615	0.940533	0.371731	0.286537	6.044956	0.042854	
0.688233	0.191750	0.937717	0.370680	0.286376	6.065546	0.042597	
0.691106	0.190153	0.932263	0.368681	0.286048	6.111511	0.042099	
0.695313	0.188027	0.924448	0.365877	0.285533	6.165622	0.041464	
0.699519	0.186127	0.916848	0.363209	0.284979	6.217708	0.040890	
0.702392	0.184946	0.911771	0.361456	0.284580	6.247858	0.040543	
0.703858	0.184376	0.909214	0.360579	0.284370	6.262130	0.040377	
0.706731	0.183317	0.904261	0.358891	0.283943	6.286930	0.040075	
0.710938	0.181896	0.897134	0.356483	0.283283	6.321512	0.039667	
0.715144	0.180607	0.890127	0.354129	0.282579	6.346145	0.039319	
0.718017	0.179795	0.885393	0.352544	0.282072	6.364382	0.039093	
0.719483	0.179399	0.882986	0.351740	0.281805	6.371781	0.038987	
0.722356	0.178656	0.878283	0.350170	0.281264	6.385111	0.038791	
0.726563	0.177638	0.871395	0.347865	0.280422	6.404533	0.038519	
0.730769	0.176689	0.864454	0.345538	0.279519	6.413631	0.038292	
0.733642	0.176074	0.859652	0.343922	0.278863	6.421000	0.038141	
0.735108	0.175768	0.857174	0.343087	0.278514	6.424859	0.038066	
0.737981	0.175183	0.852251	0.341424	0.277804	6.429286	0.037930	
0.742188	0.174354	0.844839	0.338912	0.276689	6.436844	0.037733	
0.746394	0.173546	0.837123	0.336285	0.275477	6.435458	0.037567	
0.749267	0.173002	0.831641	0.334413	0.274587	6.437630	0.037446	
0.750733	0.172725	0.828766	0.333429	0.274111	6.433027	0.037401	
0.753606	0.172182	0.822963	0.331441	0.273134	6.429945	0.037295	
0.757813	0.171381	0.814003	0.328365	0.271586	6.423552	0.037144	
0.762019	0.170562	0.804402	0.325066	0.269883	6.415824	0.036993	
0.764892	0.169988	0.797422	0.322666	0.268620	6.404921	0.036903	
0.766358	0.169690	0.793712	0.321391	0.267941	6.398573	0.036857	
0.769231	0.169092	0.786130	0.318789	0.266539	6.391155	0.036751	
0.773438	0.168179	0.774204	0.314704	0.264301	6.370660	0.036616	
0.777644	0.167214	0.761170	0.310257	0.261816	6.346042	0.036480	
0.780517	0.166520	0.751552	0.306990	0.259962	6.325697	0.036389	
0.781983	0.166154	0.746401	0.305247	0.258963	6.314036	0.036344	
0.784856	0.165410	0.735788	0.301665	0.256890	6.295160	0.036238	
0.789063	0.164252	0.718899	0.296007	0.253563	6.255455	0.036102	
0.793269	0.163006	0.700225	0.289812	0.249849	6.208775	0.035966	
0.796142	0.162099	0.686339	0.285247	0.247067	6.177075	0.035860	
0.797608	0.161617	0.678871	0.282807	0.245565	6.156386	0.035815	
0.800481	0.160635	0.663438	0.277801	0.242449	6.113498	0.035724	
0.804688	0.159102	0.638801	0.269907	0.237445	6.044431	0.035588	
0.808894	0.157448	0.611531	0.261307	0.231867	5.966091	0.035452	
0.811767	0.156248	0.591285	0.255018	0.227705	5.906420	0.035362	
0.813233	0.155613	0.580424	0.251677	0.225465	5.868815	0.035332	
0.816106	0.154326	0.558066	0.244873	0.220842	5.797525	0.035256	
0.820313	0.152342	0.522720	0.234315	0.213502	5.679360	0.035166	
0.824519	0.150253	0.484314	0.223108	0.205486	5.539303	0.035120	
0.827392	0.148777	0.456434	0.215141	0.199644	5.435802	0.035105	
0.828858	0.148012	0.441735	0.210998	0.196557	5.380029	0.035105	
0.831731	0.146498	0.412136	0.202766	0.190324	5.261254	0.035135	
0.835938	0.144272	0.367337	0.190592	0.180858	5.080131	0.035211	
0.840144	0.142085	0.321800	0.178552	0.171195	4.879936	0.035377	
0.843017	0.140646	0.290954	0.170582	0.164629	4.744099	0.035513	
0.844483	0.139936	0.275477	0.166637	0.161327	4.671822	0.035604	
0.847356	0.138603	0.245955	0.159209	0.155016	4.531824	0.035800	
0.851563	0.136821	0.205440	0.149216	0.146329	4.333074	0.036132	
0.855769	0.135268	0.169130	0.140449	0.138514	4.149331	0.036495	
0.858642	0.134345	0.147102	0.135212	0.133759	4.034412	0.036751	
0.860108	0.133918	0.136759	0.132774	0.131522	3.981819	0.036872	
0.862981	0.133160	0.118245	0.128441	0.127510	3.881162	0.037129	
0.867188	0.132229	0.095142	0.123088	0.122490	3.754555	0.037477	
0.871394	0.131484	0.076346	0.118775	0.118392	3.651612	0.037779	
0.874267	0.131066	0.065676	0.116340	0.116058	3.589974	0.037975	
0.875733	0.130877	0.060825	0.115237	0.114995	3.562149	0.038066	
0.878606	0.130550	0.052364	0.113317	0.113138	3.515615	0.038217	
0.882813	0.130158	0.042130	0.111000	0.110885	3.455092	0.038428	
0.887019	0.129849	0.033995	0.109163	0.109088	3.408338	0.038594	
0.889892	0.129676	0.029419	0.108130	0.108074	3.380211	0.038700	
0.891358	0.129598	0.027343	0.107662	0.107613	3.368032	0.038745	
0.894231	0.129463	0.023719	0.106844	0.106807	3.347554	0.038821	
0.898438	0.129299	0.019319	0.105850	0.105826	3.320464	0.038927	
0.902644	0.129169	0.015790	0.105052	0.105036	3.297957	0.039017	
0.905517	0.129095	0.013786	0.104598	0.104586	3.286339	0.039063	
0.906983	0.129062	0.012871	0.104391	0.104380	3.282021	0.039078	
0.909856	0.129003	0.011264	0.104026	0.104018	3.271227	0.039123	
0.914063	0.128931	0.009288	0.103576	0.103571	3.259810	0.039168	
0.918269	0.128873	0.007680	0.103210	0.103206	3.249132	0.039214	
0.921142	0.128840	0.006755	0.102998	0.102995	3.242314	0.039244	
0.922608	0.128824	0.006328	0.102901	0.102898	3.241547	0.039244	
0.925481	0.128797	0.005576	0.102727	0.102725	3.235057	0.039274	
0.929688	0.128764	0.004639	0.102512	0.102511	3.230828	0.039289	
0.933894	0.128737	0.003868	0.102334	0.102333	3.224349	0.039319	
0.936767	0.128721	0.003420	0.102230	0.102229	3.221009	0.039334	
0.938233	0.128713	0.003209	0.102182	0.102182	3.220643	0.039334	
0.941106	0.128700	0.002843	0.102095	0.102095	3.217449	0.039349	
0.945313	0.128684	0.002378	0.101987	0.101987	3.216635	0.039349	
0.949519	0.128671	0.001989	0.101898	0.101897	3.213422	0.039365	
0.952392	0.128662	0.001763	0.101842	0.101842	3.210482	0.039380	
0.953858	0.128659	0.001650	0.101818	0.101818	3.210296	0.039380	
0.956731	0.128653	0.001470	0.101775	0.101775	3.209989	0.039380	
0.960938	0.128644	0.001222	0.101716	0.101715	3.207022	0.039395	
0.965144	0.128637	0.001027	0.101670	0.101670	3.206688	0.039395	
